Wavelength,Intensity
4.000000000000000000e+02,1.907658910138429675e+01
4.020100502512563025e+02,1.912080931353417057e+01
4.040201005025125482e+02,1.919682227714156397e+01
4.060301507537688508e+02,1.930462672773270683e+01
4.080402010050250965e+02,1.944422019055043549e+01
4.100502512562813990e+02,1.961568277483793921e+01
4.120603015075377016e+02,1.981901398000133341e+01
4.140703517587939473e+02,2.005430852509915240e+01
4.160804020100502498e+02,2.032165593469680687e+01
4.180904522613065524e+02,2.062098275814526005e+01
4.201005025125627981e+02,2.095246020437027923e+01
4.221105527638191006e+02,2.131608440006344551e+01
4.241206030150754032e+02,2.171197078529759494e+01
4.261306532663316489e+02,2.214014571476815618e+01
4.281407035175879514e+02,2.260058433751306595e+01
4.301507537688441971e+02,2.309332138445662608e+01
4.321608040201004997e+02,2.361839310041392892e+01
4.341708542713568022e+02,2.417577983448337520e+01
4.361809045226130479e+02,2.476542648252772238e+01
4.381909547738693504e+02,2.538727269947274223e+01
4.402010050251255961e+02,2.604124472784977939e+01
4.422110552763818987e+02,2.672713682006416391e+01
4.442211055276382012e+02,2.744486929502687289e+01
4.462311557788944469e+02,2.819406636980195557e+01
4.482412060301507495e+02,2.897450967490325624e+01
4.502512562814070520e+02,2.978590790251163867e+01
4.522613065326632977e+02,3.062793630898386610e+01
4.542713567839196003e+02,3.150017550053133064e+01
4.562814070351759028e+02,3.240204699745521566e+01
4.582914572864321485e+02,3.333301253589084467e+01
4.603015075376884511e+02,3.429256736156139596e+01
4.623115577889446968e+02,3.527998631567849230e+01
4.643216080402009993e+02,3.629455410752577649e+01
4.663316582914573019e+02,3.733544489462730809e+01
4.683417085427135476e+02,3.840177393216730195e+01
4.703517587939698501e+02,3.949261128786547204e+01
4.723618090452260958e+02,4.060690099875490944e+01
4.743718592964823983e+02,4.174359404145491226e+01
4.763819095477387009e+02,4.290152780034998159e+01
4.783919597989950034e+02,4.407948009006543799e+01
4.804020100502512491e+02,4.527612332619789726e+01
4.824120603015074948e+02,4.649015482242232622e+01
4.844221105527637974e+02,4.772008381689671808e+01
4.864321608040200999e+02,4.896443998602690328e+01
4.884422110552764025e+02,5.022167410780901520e+01
4.904522613065326482e+02,5.149019779299928956e+01
4.924623115577889507e+02,5.276835194714351474e+01
4.944723618090451964e+02,5.405441267141825534e+01
4.964824120603014990e+02,5.534661986718321458e+01
4.984924623115578015e+02,5.664316740010838913e+01
5.005025125628140472e+02,5.794228527662912143e+01
5.025125628140703498e+02,5.924203205462579547e+01
5.045226130653265955e+02,6.054055795999769884e+01
5.065326633165828980e+02,6.183595667381503347e+01
5.085427135678392006e+02,6.312627945082080316e+01
5.105527638190955031e+02,6.440961824495624910e+01
5.125628140703518056e+02,6.568401228008241333e+01
5.145728643216079945e+02,6.694752143771917474e+01
5.165829145728642970e+02,6.819821668193006303e+01
5.185929648241205996e+02,6.943414629629285173e+01
5.206030150753769021e+02,7.065342552633168793e+01
5.226130653266332047e+02,7.185415604631441511e+01
5.246231155778893935e+02,7.303453692806230890e+01
5.266331658291456961e+02,7.419272671547923892e+01
5.286432160804019986e+02,7.532693294309858345e+01
5.306532663316583012e+02,7.643541751409524920e+01
5.326633165829146037e+02,7.751651292356046952e+01
5.346733668341707926e+02,7.856859364649088207e+01
5.366834170854270951e+02,7.959007266351625276e+01
5.386934673366833977e+02,8.057942872665213940e+01
5.407035175879397002e+02,8.153522736862856846e+01
5.427135678391960028e+02,8.245608263073080479e+01
5.447236180904521916e+02,8.334068614660037611e+01
5.467336683417084942e+02,8.418778478795560716e+01
5.487437185929647967e+02,8.499622524551251956e+01
5.507537688442210992e+02,8.576491114401366644e+01
5.527638190954774018e+02,8.649281406634341351e+01
5.547738693467335906e+02,8.717903804292551229e+01
5.567839195979900069e+02,8.782268929061820018e+01
5.587939698492461957e+02,8.842302268852034786e+01
5.608040201005024983e+02,8.897930515394799045e+01
5.628140703517588008e+02,8.949092676880705710e+01
5.648241206030149897e+02,8.995734688633582721e+01
5.668341708542714059e+02,9.037810408615895597e+01
5.688442211055275948e+02,9.075279109714550430e+01
5.708542713567838973e+02,9.108109986360329913e+01
5.728643216080401999e+02,9.136277951334606939e+01
5.748743718592965024e+02,9.159767128821482629e+01
5.768844221105528050e+02,9.178566191355743342e+01
5.788944723618089938e+02,9.192673281497268079e+01
5.809045226130652964e+02,9.202091163272125129e+01
5.829145728643215989e+02,9.206830029748856248e+01
5.849246231155779014e+02,9.206905839671615865e+01
5.869346733668342040e+02,9.202341192578580831e+01
5.889447236180903928e+02,9.193164738332166053e+01
5.909547738693466954e+02,9.179411207874196066e+01
5.929648241206029979e+02,9.161120699238392717e+01
5.949748743718593005e+02,9.138339320780595187e+01
5.969849246231156030e+02,9.111117358422569623e+01
5.989949748743717919e+02,9.079512794620913496e+01
6.010050251256280944e+02,9.043586132994724380e+01
6.030150753768843970e+02,9.003405725103665702e+01
6.050251256281406995e+02,8.959042478016128541e+01
6.070351758793970021e+02,8.910573451882873997e+01
6.090452261306531909e+02,8.858080217366446618e+01
6.110552763819094935e+02,8.801648062984521914e+01
6.130653266331657960e+02,8.741369573611223132e+01
6.150753768844220986e+02,8.677340470304973508e+01
6.170854271356784011e+02,8.609661602060421615e+01
6.190954773869345900e+02,8.538436630387778337e+01
6.211055276381910062e+02,8.463776712552686377e+01
6.231155778894471950e+02,8.385795257192006602e+01
6.251256281407034976e+02,8.304610233571440858e+01
6.271356783919598001e+02,8.220343179112410326e+01
6.291457286432159890e+02,8.133121728804454165e+01
6.311557788944724052e+02,8.043075894843453000e+01
6.331658291457285941e+02,7.950340232817255526e+01
6.351758793969848966e+02,7.855051920841538049e+01
6.371859296482411992e+02,7.757355171319734666e+01
6.391959798994975017e+02,7.657392503742703127e+01
6.412060301507538043e+02,7.555314285487887105e+01
6.432160804020099931e+02,7.451271524129352031e+01
6.452261306532662957e+02,7.345417440633579531e+01
6.472361809045225982e+02,7.237909145497776819e+01
6.492462311557789008e+02,7.128904335223903388e+01
6.512562814070352033e+02,7.018563596442146491e+01
6.532663316582913922e+02,6.907049853779187742e+01
6.552763819095476947e+02,6.794524614753368041e+01
6.572864321608039972e+02,6.681153590001500220e+01
6.592964824120602998e+02,6.567097155228229610e+01
6.613065326633166023e+02,6.452523284264916015e+01
6.633165829145727912e+02,6.337593437315589995e+01
6.653266331658290937e+02,6.222472425966845577e+01
6.673366834170853963e+02,6.107318972641571975e+01
6.693467336683416988e+02,5.992292945651048797e+01
6.713567839195980014e+02,5.877553017715596440e+01
6.733668341708541902e+02,5.763251115362118071e+01
6.753768844221106065e+02,5.649541177986701257e+01
6.773869346733667953e+02,5.536568193999146104e+01
6.793969849246230979e+02,5.424477373890420751e+01
6.814070351758794004e+02,5.313406680617930533e+01
6.834170854271355893e+02,5.203493018058637887e+01
6.854271356783920055e+02,5.094863214635915227e+01
6.874371859296481944e+02,4.987643382329212471e+01
6.894472361809044969e+02,4.881947429628507962e+01
6.914572864321607994e+02,4.777893094235047045e+01
6.934673366834169883e+02,4.675586005494596264e+01
6.954773869346734045e+02,4.575122468200542158e+01
6.974874371859295934e+02,4.476597074898482731e+01
6.994974874371858959e+02,4.380092908651393913e+01
7.015075376884421985e+02,4.285690357256148530e+01
7.035175879396983873e+02,4.193458267491416791e+01
7.055276381909548036e+02,4.103465811818656306e+01
7.075376884422109924e+02,4.015766299237309056e+01
7.095477386934672950e+02,3.930414546105937035e+01
7.115577889447235975e+02,3.847450378528999693e+01
7.135678391959799001e+02,3.766906096011300775e+01
7.155778894472362026e+02,3.688819099824673486e+01
7.175879396984923915e+02,3.613205178132703566e+01
7.195979899497486940e+02,3.540085491044398225e+01
7.216080402010049966e+02,3.469462699432355635e+01
7.236180904522612991e+02,3.401341447662495909e+01
7.256281407035176017e+02,3.335723225438857042e+01
7.276381909547737905e+02,3.272595809294215030e+01
7.296482412060300931e+02,3.211946151038294772e+01
7.316582914572863956e+02,3.153761982497333349e+01
7.336683417085426981e+02,3.098011773541437464e+01
7.356783919597990007e+02,3.044669424398296798e+01
7.376884422110551895e+02,2.993710891949062969e+01
7.396984924623116058e+02,2.945090606433096880e+01
7.417085427135677946e+02,2.898780341497145940e+01
7.437185929648240972e+02,2.854732650634126756e+01
7.457286432160803997e+02,2.812905100900055544e+01
7.477386934673365886e+02,2.773261776824422853e+01
7.497487437185930048e+02,2.735738688052485301e+01
7.517587939698491937e+02,2.700290747850947781e+01
7.537688442211054962e+02,2.666871549427327182e+01
7.557788944723617988e+02,2.635438925942847987e+01
7.577889447236179876e+02,2.605934867278427447e+01
7.597989949748744039e+02,2.578303885364606174e+01
7.618090452261305927e+02,2.552497632195193233e+01
7.638190954773868953e+02,2.528468007114823379e+01
7.658291457286431978e+02,2.506168032287657255e+01
7.678391959798993867e+02,2.485546324492787562e+01
7.698492462311558029e+02,2.466554050917587304e+01
7.718592964824119917e+02,2.449146276679889667e+01
7.738693467336682943e+02,2.433277227684181909e+01
7.758793969849245968e+02,2.418908222390183838e+01
7.778894472361808994e+02,2.405995800214839164e+01
7.798994974874372019e+02,2.394504863341617451e+01
7.819095477386933908e+02,2.384403848259358938e+01
7.839195979899496933e+02,2.375663885270146380e+01
7.859296482412059959e+02,2.368249876933452924e+01
7.879396984924622984e+02,2.362132255809951786e+01
7.899497487437186010e+02,2.357288679470809711e+01
7.919597989949747898e+02,2.353708332248858781e+01
7.939698492462310924e+02,2.351367610356048132e+01
7.959798994974873949e+02,2.350253551801465335e+01
7.979899497487436975e+02,2.350354083175691500e+01
8.000000000000000000e+02,2.351667966200203708e+01
