Wavelength,Intensity
4.000000000000000000e+02,1.944026893431327352e+01
4.020100502512563025e+02,1.948637433798335650e+01
4.040201005025125482e+02,1.956613290645751846e+01
4.060301507537688508e+02,1.967952218918794216e+01
4.080402010050250965e+02,1.982650081707630108e+01
4.100502512562813990e+02,2.000709215303077215e+01
4.120603015075377016e+02,2.022123261114272452e+01
4.140703517587939473e+02,2.046893378264749686e+01
4.160804020100502498e+02,2.075018736235497485e+01
4.180904522613065524e+02,2.106482767524871846e+01
4.201005025125627981e+02,2.141289349653197505e+01
4.221105527638191006e+02,2.179425348195811907e+01
4.241206030150754032e+02,2.220887046008894217e+01
4.261306532663316489e+02,2.265661337714854540e+01
4.281407035175879514e+02,2.313729199217905830e+01
4.301507537688441971e+02,2.365075427791128959e+01
4.321608040201004997e+02,2.419683507755502561e+01
4.341708542713568022e+02,2.477531000052431409e+01
4.361809045226130479e+02,2.538590270259008719e+01
4.381909547738693504e+02,2.602832287636988795e+01
4.402010050251255961e+02,2.670225079077589214e+01
4.422110552763818987e+02,2.740723939767190132e+01
4.442211055276382012e+02,2.814293904919398415e+01
4.462311557788944469e+02,2.890872479908126635e+01
4.482412060301507495e+02,2.970410119102150048e+01
4.502512562814070520e+02,3.052849523911166330e+01
4.522613065326632977e+02,3.138129328649032246e+01
4.542713567839196003e+02,3.226178800184189299e+01
4.562814070351759028e+02,3.316912458254512330e+01
4.582914572864321485e+02,3.410247556181072781e+01
4.603015075376884511e+02,3.506103372390038686e+01
4.623115577889446968e+02,3.604380083624006659e+01
4.643216080402009993e+02,3.704977394627888998e+01
4.663316582914573019e+02,3.807785495340937132e+01
4.683417085427135476e+02,3.912689265409668593e+01
4.703517587939698501e+02,4.019569605866459483e+01
4.723618090452260958e+02,4.128296567154484364e+01
4.743718592964823983e+02,4.238741856364825367e+01
4.763819095477387009e+02,4.350766760660438592e+01
4.783919597989950034e+02,4.464228958950860715e+01
4.804020100502512491e+02,4.578978106191865294e+01
4.824120603015074948e+02,4.694866523916348910e+01
4.844221105527637974e+02,4.811731219507735346e+01
4.864321608040200999e+02,4.929412330084360860e+01
4.884422110552764025e+02,5.047745813533840220e+01
4.904522613065326482e+02,5.166565137146270814e+01
4.924623115577889507e+02,5.285699178909520413e+01
4.944723618090451964e+02,5.404974534749768367e+01
4.964824120603014990e+02,5.524214829026745832e+01
4.984924623115578015e+02,5.643243963065201285e+01
5.005025125628140472e+02,5.761891099018003359e+01
5.025125628140703498e+02,5.879971035988123162e+01
5.045226130653265955e+02,5.997311437056172423e+01
5.065326633165828980e+02,6.113737169611534483e+01
5.085427135678392006e+02,6.229071584054148047e+01
5.105527638190955031e+02,6.343144800804596173e+01
5.125628140703518056e+02,6.455783431096006098e+01
5.145728643216079945e+02,6.566821104353064698e+01
5.165829145728642970e+02,6.676092618767482634e+01
5.185929648241205996e+02,6.783433983248939114e+01
5.206030150753769021e+02,6.888689396976151613e+01
5.226130653266332047e+02,6.991706290261467416e+01
5.246231155778893935e+02,7.092339929704716894e+01
5.266331658291456961e+02,7.190446659844545252e+01
5.286432160804019986e+02,7.285887727487680365e+01
5.306532663316583012e+02,7.378531473732574852e+01
5.326633165829146037e+02,7.468254938244686514e+01
5.346733668341707926e+02,7.554939766145973579e+01
5.366834170854270951e+02,7.638472720680606187e+01
5.386934673366833977e+02,7.718747589953133570e+01
5.407035175879397002e+02,7.795666955667454090e+01
5.427135678391960028e+02,7.869138406960031773e+01
5.447236180904521916e+02,7.939077138253489352e+01
5.467336683417084942e+02,8.005403952627149522e+01
5.487437185929647967e+02,8.068048658460901379e+01
5.507537688442210992e+02,8.126946200953864263e+01
5.527638190954774018e+02,8.182037553599755597e+01
5.547738693467335906e+02,8.233274944319985877e+01
5.567839195979900069e+02,8.280611030787579807e+01
5.587939698492461957e+02,8.324010458396087131e+01
5.608040201005024983e+02,8.363438678610557986e+01
5.628140703517588008e+02,8.398870944968845720e+01
5.648241206030149897e+02,8.430287851589105230e+01
5.668341708542714059e+02,8.457675823599147691e+01
5.688442211055275948e+02,8.481025234218799369e+01
5.708542713567838973e+02,8.500333430957358871e+01
5.728643216080401999e+02,8.515602262094965624e+01
5.748743718592965024e+02,8.526839527528990459e+01
5.768844221105528050e+02,8.534056080110410392e+01
5.788944723618089938e+02,8.537269397826760553e+01
5.809045226130652964e+02,8.536499771110581491e+01
5.829145728643215989e+02,8.531772363282976812e+01
5.849246231155779014e+02,8.523115787430273826e+01
5.869346733668342040e+02,8.510563148939002076e+01
5.889447236180903928e+02,8.494151253924310652e+01
5.909547738693466954e+02,8.473920761518959921e+01
5.929648241206029979e+02,8.449915867005472592e+01
5.949748743718593005e+02,8.422184373235802468e+01
5.969849246231156030e+02,8.390776416639857871e+01
5.989949748743717919e+02,8.355747562001934625e+01
6.010050251256280944e+02,8.317154474961685651e+01
6.030150753768843970e+02,8.275059468241707350e+01
6.050251256281406995e+02,8.229525873151393967e+01
6.070351758793970021e+02,8.180621525895105606e+01
6.090452261306531909e+02,8.128417311074277052e+01
6.110552763819094935e+02,8.072986246590185999e+01
6.130653266331657960e+02,8.014407070202784666e+01
6.150753768844220986e+02,7.952760642750500608e+01
6.170854271356784011e+02,7.888131488012012937e+01
6.190954773869345900e+02,7.820606067453957166e+01
6.211055276381910062e+02,7.750276893287430369e+01
6.231155778894471950e+02,7.677238260434472750e+01
6.251256281407034976e+02,7.601587764914567913e+01
6.271356783919598001e+02,7.523425932344957801e+01
6.291457286432159890e+02,7.442858486286202435e+01
6.311557788944724052e+02,7.359992939197607598e+01
6.331658291457285941e+02,7.274940690812036337e+01
6.351758793969848966e+02,7.187815593213065313e+01
6.371859296482411992e+02,7.098737375452007825e+01
6.391959798994975017e+02,7.007824558911954682e+01
6.412060301507538043e+02,6.915202123947663893e+01
6.432160804020099931e+02,6.820996544326301603e+01
6.452261306532662957e+02,6.725335579506931083e+01
6.472361809045225982e+02,6.628351142002084373e+01
6.492462311557789008e+02,6.530175441072528031e+01
6.512562814070352033e+02,6.430943588656271004e+01
6.532663316582913922e+02,6.330792938271572012e+01
6.552763819095476947e+02,6.229859972607246732e+01
6.572864321608039972e+02,6.128284780867193149e+01
6.592964824120602998e+02,6.026203585099275983e+01
6.613065326633166023e+02,5.923759065964560477e+01
6.633165829145727912e+02,5.821088538986083449e+01
6.653266331658290937e+02,5.718332628915301541e+01
6.673366834170853963e+02,5.615626707930159256e+01
6.693467336683416988e+02,5.513107747423462968e+01
6.713567839195980014e+02,5.410911577979075560e+01
6.733668341708541902e+02,5.309168318174195633e+01
6.753768844221106065e+02,5.208010269454962327e+01
6.773869346733667953e+02,5.107562071545632421e+01
6.793969849246230979e+02,5.007948700223973049e+01
6.814070351758794004e+02,4.909288731085685242e+01
6.834170854271355893e+02,4.811700733541165675e+01
6.854271356783920055e+02,4.715293727041550653e+01
6.874371859296481944e+02,4.620176222329052962e+01
6.894472361809044969e+02,4.526447313454605137e+01
6.914572864321607994e+02,4.434207459547727836e+01
6.934673366834169883e+02,4.343549566515540761e+01
6.954773869346734045e+02,4.254556281759512615e+01
6.974874371859295934e+02,4.167309187541080462e+01
6.994974874371858959e+02,4.081879330800397554e+01
7.015075376884421985e+02,3.998337909240868271e+01
7.035175879396983873e+02,3.916743232739337088e+01
7.055276381909548036e+02,3.837155812371231889e+01
7.075376884422109924e+02,3.759621482965339112e+01
7.095477386934672950e+02,3.684187884038779970e+01
7.115577889447235975e+02,3.610889740819273896e+01
7.135678391959799001e+02,3.539753083573801007e+01
7.155778894472362026e+02,3.470810409226261584e+01
7.175879396984923915e+02,3.404075294795851647e+01
7.195979899497486940e+02,3.339564372016671712e+01
7.216080402010049966e+02,3.277279654202837378e+01
7.236180904522612991e+02,3.217223920428888562e+01
7.256281407035176017e+02,3.159397377977108334e+01
7.276381909547737905e+02,3.103789009137263122e+01
7.296482412060300931e+02,3.050386020719546565e+01
7.316582914572863956e+02,2.999176501505648673e+01
7.336683417085426981e+02,2.950131588412765282e+01
7.356783919597990007e+02,2.903227977891563327e+01
7.376884422110551895e+02,2.858443815036991609e+01
7.396984924623116058e+02,2.815737297162310426e+01
7.417085427135677946e+02,2.775083125246164073e+01
7.437185929648240972e+02,2.736438338077183374e+01
7.457286432160803997e+02,2.699764561486383840e+01
7.477386934673365886e+02,2.665029258069907669e+01
7.497487437185930048e+02,2.632175083937646320e+01
7.517587939698491937e+02,2.601161053142430646e+01
7.537688442211054962e+02,2.571946096061540388e+01
7.557788944723617988e+02,2.544491850790541321e+01
7.577889447236179876e+02,2.518746269359531453e+01
7.597989949748744039e+02,2.494659768427284519e+01
7.618090452261305927e+02,2.472188906464252156e+01
7.638190954773868953e+02,2.451290400375126310e+01
7.658291457286431978e+02,2.431922103962936887e+01
7.678391959798993867e+02,2.414038128677286821e+01
7.698492462311558029e+02,2.397594657136499663e+01
7.718592964824119917e+02,2.382551524373667107e+01
7.738693467336682943e+02,2.368867630945557679e+01
7.758793969849245968e+02,2.356508169208794001e+01
7.778894472361808994e+02,2.345434383996896699e+01
7.798994974874372019e+02,2.335614516716235300e+01
7.819095477386933908e+02,2.327020660386292761e+01
7.839195979899496933e+02,2.319626801584462328e+01
7.859296482412059959e+02,2.313401457538730810e+01
7.879396984924622984e+02,2.308318179354703403e+01
7.899497487437186010e+02,2.304356972574004914e+01
7.919597989949747898e+02,2.301508052491329437e+01
7.939698492462310924e+02,2.299750403064664894e+01
7.959798994974873949e+02,2.299072445555665567e+01
7.979899497487436975e+02,2.299463151389619853e+01
8.000000000000000000e+02,2.300921475414393669e+01
